t,x,y,theta
219.6,-6.6951188885852755,11.723511466918083,-3.136150516277671
219.7,-6.730219991395702,11.723277572728627,-3.137186516277671
219.8,-6.764842637245671,11.7230538243259,-3.1366285162776713
219.9,-6.799411665256578,11.722796384272357,-3.135314516277671
220.0,-6.83286504986964,11.722526786552603,-3.135471516277671
220.1,-6.867427937628003,11.722237624309686,-3.134596516277671
220.2,-6.902195931784979,11.72191954208667,-3.134028516277671
220.3,-6.936158536629351,11.721612092603097,-3.134628516277671
220.4,-6.970873242872403,11.721301109551145,-3.1341765162776714
220.5,-7.005484742482127,11.720960170016804,-3.1330135162776713
220.6,-7.039923468851615,11.720596308714239,-3.1328325162776713
220.7,-7.0757933849276275,11.720218518163954,-3.133028516277671
220.8,-7.108739923536605,11.719868098862039,-3.132652516277671
220.9,-7.143329733699853,11.719512821688015,-3.133854516277671
221.0,-7.177447521031557,11.719187250515063,-3.134254516277671
221.1,-7.211921140222361,11.718869784158565,-3.1345315162776712
221.2,-7.245775769505811,11.718573210255125,-3.135031516277671
221.3,-7.280780651515796,11.718251643050651,-3.1335025162776713
221.4,-7.315637942648465,11.71789263345132,-3.1326545162776713
221.5,-7.347775098948814,11.717568372866525,-3.1340485162776712
221.6,-7.381094353887002,11.71722827528636,-3.1326385162776713
221.7,-7.415602252481357,11.716832867140736,-3.1315165162776712
221.8,-7.448698397861607,11.71642965755572,-3.1313355162776713
221.9,-7.483678466225694,11.715998462421517,-3.131232516277671
222.0,-7.518572083512764,11.715572085096184,-3.131610516277671
222.1,-7.554639460304221,11.715141509454671,-3.1318415162776714
222.2,-7.589609160808395,11.714737855334986,-3.1323805162776712
222.3,-7.623892480462957,11.714340145059676,-3.131638516277671
222.4,-7.6575380491436515,11.71392307773577,-3.1306755162776714
222.5,-7.691373762781766,11.71347015103139,-3.129821516277671
222.6,-7.727521267410745,11.712956163582234,-3.128893516277671
222.7,-7.760644128992668,11.71246134480244,-3.128319516277671
222.8,-7.795902515408777,11.711911401775962,-3.127603516277671
222.9,-7.831409992893571,11.711363366497133,-3.128542516277671
223.0,-7.865710960117305,11.710868236699639,-3.129787516277671
223.1,-7.90057923527076,11.710388130645828,-3.129722516277671
223.2,-7.9349928360935955,11.709900326990109,-3.128951516277671
223.3,-7.969083580041599,11.709407682014907,-3.129278516277671
223.4,-8.003131610138807,11.708920089459921,-3.129297516277671
223.5,-8.037197924439205,11.708438036572227,-3.1296965162776713
223.6,-8.071262210013138,11.707971886019862,-3.1302275162776714
223.7,-8.105705210422514,11.707506006421964,-3.1300745162776713
223.8,-8.14046210477176,11.707027977975896,-3.1299155162776713
223.9,-8.17430362873728,11.706565982639011,-3.1303955162776713
224.0,-8.208139424856677,11.706123253640103,-3.130874516277671
224.1,-8.2439405606411,11.705631483830786,-3.129269516277671
224.2,-8.277735676828039,11.70513005097259,-3.128529516277671
224.3,-8.313556024877283,11.70456457981403,-3.127470516277671
224.4,-8.347842958721454,11.703983269599629,-3.126168516277671
224.5,-8.38232607726992,11.703361148090208,-3.125221516277671
224.6,-8.41753944280802,11.702700759961786,-3.1248955162776713
224.7,-8.451192159835408,11.70207633328521,-3.1254995162776713
224.8,-8.48508084703793,11.701431954755364,-3.1240575162776714
224.9,-8.519473596353999,11.700718190451157,-3.1220965162776713
225.0,-8.555454122788877,11.69992784402767,-3.121638516277671
225.1,-8.590555888487046,11.699169708900689,-3.1228875162776712
225.2,-8.624704645587165,11.698453995608189,-3.1229775162776714
225.3,-8.66024835910444,11.697706210611088,-3.122457516277671
225.4,-8.69451257248608,11.696983091438641,-3.122807516277671
225.5,-8.729175749175912,11.696266159245607,-3.123198516277671
225.6,-8.764126320190904,11.695558473774504,-3.1237835162776713
225.7,-8.79827852377495,11.69485665730713,-3.122546516277671
225.8,-8.833635043931023,11.69409744228281,-3.1219285162776713
225.9,-8.868627686970918,11.693329599146193,-3.1215725162776713
226.0,-8.900380506581604,11.692625223698524,-3.121234516277671
226.1,-8.93614063525154,11.691816067032892,-3.1207715162776712
226.2,-8.970413592532418,11.691010113421799,-3.1196025162776713
226.3,-9.004927013064034,11.690182014268402,-3.119801516277671
226.4,-9.040924576099082,11.689339949818518,-3.120513516277671
226.5,-9.074896365951602,11.688543492527621,-3.119849516277671
226.6,-9.110954344479769,11.687678385330697,-3.119429516277671
226.7,-9.145914270362999,11.686842163925167,-3.119988516277671
226.8,-9.180297167474361,11.686025711091597,-3.119654516277671
226.9,-9.21499322383467,11.685227514347439,-3.1214835162776713
227.0,-9.248950170776052,11.684487268158547,-3.122104516277671
227.1,-9.282912863587935,11.683754232030141,-3.1217535162776713
227.2,-9.31713098109175,11.683005989759804,-3.121580516277671
227.3,-9.351396158583787,11.682256582367732,-3.121752516277671
227.4,-9.386792258007485,11.681492732521493,-3.122123516277671
227.5,-9.419957271646835,11.68077791555067,-3.121860516277671
227.6,-9.455220406517395,11.679990625832241,-3.1203115162776713
227.7,-9.49009321108958,11.679173348480177,-3.1198225162776714
227.8,-9.523994952279994,11.678397070013258,-3.1214195162776712
227.9,-9.557185506615532,11.677639291747784,-3.120062516277671
228.0,-9.593256606037254,11.676796044151782,-3.1203465162776713
228.1,-9.628644059618622,11.675981664617135,-3.120877516277671
228.2,-9.663686502847872,11.675187726631593,-3.121072516277671
228.3,-9.6979924531374,11.674411512915926,-3.120868516277671
228.4,-9.732393423056868,11.673622959430151,-3.120630516277671
228.5,-9.765434481510553,11.672858937663353,-3.120321516277671
228.6,-9.799589871302164,11.672066094562064,-3.120347516277671
228.7,-9.833725430219316,11.671270470019003,-3.120183516277671
228.8,-9.868261439850905,11.670446698978646,-3.119318516277671
228.9,-9.900600302792807,11.669648936091056,-3.1186845162776713
229.0,-9.935028677172358,11.66878112356436,-3.118372516277671
229.1,-9.970018995160657,11.667871306507125,-3.117005516277671
229.2,-10.004887799096181,11.66694737084593,-3.1172865162776713
229.3,-10.039166847748323,11.666045856284674,-3.117231516277671
229.4,-10.07344510244451,11.665143171409808,-3.1172515162776713
229.5,-10.109345026921652,11.66418363478445,-3.116272516277671
229.6,-10.143457759678729,11.663257381123591,-3.116462516277671
229.7,-10.178491196283616,11.662271315886683,-3.114419516277671
229.8,-10.212511783717561,11.661252060938601,-3.1128035162776713
229.9,-10.245777699706142,11.660233810752855,-3.113498516277671
230.0,-10.280116279773528,11.659175701138679,-3.112328516277671
230.1,-10.313583961374334,11.658103454307454,-3.1112785162776713
230.2,-10.349150828822417,11.656969120612919,-3.112456516277671
230.3,-10.383002971129168,11.655904354796643,-3.1120985162776713
230.4,-10.418490973918368,11.654767128770914,-3.111219516277671
230.5,-10.454334937480473,11.653605450175672,-3.1112915162776713
230.6,-10.48917409193684,11.652458959109275,-3.110237516277671
230.7,-10.5235008967706,11.651302883460819,-3.109773516277671
230.8,-10.557968005131784,11.650131944428075,-3.109748516277671
230.9,-10.592491806650175,11.648962704196657,-3.1100265162776712
231.0,-10.625615405960492,11.647831657898001,-3.1092075162776713
231.1,-10.660051462366326,11.646652732873207,-3.109923516277671
231.2,-10.693298581239622,11.645541280388901,-3.110785516277671
231.3,-10.725930762466618,11.644466769631162,-3.111052516277671
231.4,-10.759550891545498,11.643353476893571,-3.1103195162776713
231.5,-10.795067069534477,11.642159539686254,-3.110095516277671
231.6,-10.830409868506099,11.64094052826232,-3.1085565162776714
231.7,-10.865634434946298,11.639700899648616,-3.108738516277671
231.8,-10.90082201538182,11.638447057117157,-3.1076315162776713
231.9,-10.936195477118622,11.637163665612208,-3.1072375162776713
232.0,-10.970678998278467,11.635912379706223,-3.1074565162776713
232.1,-11.006333420211515,11.634618674708868,-3.107270516277671
232.2,-11.04093933705325,11.633345021481746,-3.1064215162776714
232.3,-11.075097495748476,11.632070086757246,-3.106098516277671
232.4,-11.108567474287096,11.630821114930402,-3.106501516277671
232.5,-11.143594466673672,11.62952326696137,-3.106399516277671
232.6,-11.178348190979687,11.628216842504429,-3.1054455162776713
232.7,-11.212365839944276,11.626931276900539,-3.105875516277671
232.8,-11.24628594047288,11.625660621113445,-3.1062305162776713
232.9,-11.28019402596464,11.624383590462468,-3.1056365162776713
233.0,-11.3152027393399,11.62303234888197,-3.104534516277671
233.1,-11.349026802055018,11.621720891889254,-3.105193516277671
233.2,-11.385380676849957,11.620315819508903,-3.1046995162776714
233.3,-11.418233946843417,11.619054576972019,-3.105644516277671
233.4,-11.453327376445603,11.617702257942947,-3.104509516277671
233.5,-11.488499588225384,11.616342633539595,-3.1052295162776713
233.6,-11.521654278282927,11.615054633854747,-3.1042095162776713
233.7,-11.55586073692876,11.613713607415399,-3.104675516277671
233.8,-11.590279218157313,11.612350077100476,-3.1033135162776713
233.9,-11.625723556112183,11.610930591651092,-3.103944516277671
234.0,-11.659811823467237,11.609574046874705,-3.1037365162776713
234.1,-11.694268736866064,11.608185298148095,-3.102981516277671
234.2,-11.728954557317728,11.606776262451204,-3.1030725162776713
234.3,-11.763051292720032,11.605375521609655,-3.1020015162776713
234.4,-11.796690342930473,11.603982797322699,-3.102302516277671
234.5,-11.83067149832933,11.602574165802894,-3.1019475162776713
234.6,-11.865773965707128,11.601126850360139,-3.102876516277671
234.7,-11.901199289959752,11.599684376236869,-3.1028625162776713
234.8,-11.934088803626327,11.598345568268517,-3.1030565162776713
234.9,-11.96790292646358,11.596969078985142,-3.103000516277671
235.0,-12.002198058283597,11.595558496322635,-3.102329516277671
235.1,-12.037120666082599,11.594109301540364,-3.1023285162776713
235.2,-12.063039342780197,11.574480983547081,-1.8890175162776712
235.3,-12.07375828257819,11.54163221056228,-1.8879445162776711
235.4,-12.0844330751923,11.508902252669767,-1.8888955162776713
235.5,-12.09502297349005,11.476466576878389,-1.888390516277671
235.6,-12.105476960535967,11.44439482708447,-1.8879355162776712
235.7,-12.115810508234567,11.412611567088668,-1.8869715162776712
235.8,-12.126498641072306,11.379615362997244,-1.8856555162776711
235.9,-12.136505614163331,11.348580010098406,-1.884406516277671
236.0,-12.14697649635746,11.316026838915297,-1.8840535162776713
236.1,-12.157542099407632,11.283133413475156,-1.8835865162776713
236.2,-12.1678458842889,11.251016593627599,-1.883456516277671
236.3,-12.17827960513203,11.218524521004147,-1.8839925162776712
236.4,-12.188418705425192,11.186948370174047,-1.883286516277671
236.5,-12.198637253232455,11.15501071126312,-1.881896516277671
236.6,-12.208453091296292,11.124276775685251,-1.882244516277671
236.7,-12.219186005797521,11.090706747053908,-1.8825245162776711
236.8,-12.229638807542912,11.058003492236207,-1.8819925162776712
236.9,-12.239822093811838,11.026143586935577,-1.8825455162776712
237.0,-12.25008752136348,10.99393999891837,-1.8804125162776713
237.1,-12.260617711039611,10.960790331614085,-1.8805135162776712
237.2,-12.270699298554593,10.929062650983793,-1.8806265162776712
237.3,-12.280990501413768,10.896772364445713,-1.8820425162776713
237.4,-12.291630587230983,10.863437060835242,-1.8817115162776712
237.5,-12.302025662059991,10.830822528073002,-1.8812335162776712
237.6,-12.312288712935647,10.798567575170793,-1.8807695162776712
237.7,-12.322548546746845,10.766302842161412,-1.8810565162776711
237.8,-12.332548967473258,10.734796848139721,-1.8798605162776711
237.9,-12.336303906334868,10.700968089972363,-1.4875085162776711
238.0,-12.333188423799363,10.664974794019216,-1.4863595162776713
238.1,-12.330254033847048,10.631293887193422,-1.4863975162776712
238.2,-12.327075359862876,10.594907680511463,-1.485908516277671
238.3,-12.32395621915401,10.55931077781982,-1.485889516277671
238.4,-12.320951102959278,10.525154061369667,-1.4850915162776712
238.5,-12.317912614949474,10.49079953106267,-1.484990516277671
238.6,-12.314875052258191,10.456583651914292,-1.4844125162776711
238.7,-12.312034504958568,10.424878705249162,-1.4836065162776713
238.8,-12.308886221902057,10.38997062454002,-1.4832105162776712
238.9,-12.305716458345398,10.354855808279716,-1.4835865162776711
239.0,-12.302655718507047,10.32104785537449,-1.4827265162776713
239.1,-12.29963713258618,10.287965803321477,-1.4821635162776712
239.2,-12.296442320477926,10.253173026763793,-1.4814975162776711
239.3,-12.29337632936243,10.21980698043703,-1.4819085162776713
239.4,-12.290105215590051,10.184115795255137,-1.4819505162776712
239.5,-12.287032555734296,10.150773925940252,-1.4809165162776712
239.6,-12.283882898021021,10.116787043966626,-1.4809845162776711
239.7,-12.280636875900939,10.081724816978085,-1.4811845162776711
239.8,-12.277377214783332,10.04660092170153,-1.4805905162776711
239.9,-12.274252427237869,10.012973135083977,-1.4809425162776713
240.0,-12.271053072878374,9.978443199481918,-1.481033516277671
240.1,-12.267863506266687,9.944032231102206,-1.4807985162776711
240.2,-12.26477234562078,9.910755035744703,-1.480828516277671
240.3,-12.261519365781592,9.87606922420503,-1.4790105162776712
240.4,-12.258159310623679,9.840608417906585,-1.4788225162776711
240.5,-12.25487343308963,9.805977394519582,-1.4789625162776712
240.6,-12.251579615996047,9.771334667996486,-1.4785245162776712
240.7,-12.248318080142095,9.737118639166809,-1.478353516277671
240.8,-12.244920925641324,9.701532614504057,-1.4782015162776712
240.9,-12.241416445929218,9.66497096373515,-1.477732516277671
241.0,-12.23809927389349,9.630641437701641,-1.4766905162776711
241.1,-12.234633707523797,9.595205215629626,-1.4754325162776711
241.2,-12.231297905489765,9.5613608513456,-1.475214516277671
241.3,-12.227946729608115,9.527458559133859,-1.474906516277671
241.4,-12.224588227584693,9.493668900521222,-1.4740635162776712
241.5,-12.221145664581455,9.459233894132828,-1.473789516277671
241.6,-12.217778137614932,9.425613562276498,-1.4735205162776712
241.7,-12.214329101690897,9.391323935052004,-1.472920516277671
241.8,-12.210879129770245,9.357379294963371,-1.4715505162776712
241.9,-12.20729338952148,9.322288632204337,-1.471905516277671
242.0,-12.203821692105587,9.288276701679116,-1.4718035162776713
242.1,-12.200280809926667,9.253834057248195,-1.4706065162776711
242.2,-12.19675248900234,9.219756295284487,-1.470272516277671
242.3,-12.193057175485698,9.183994014554454,-1.4709965162776713
242.4,-12.18947037032651,9.14928089631725,-1.4702065162776712
242.5,-12.185798699847805,9.114016967879031,-1.4693295162776712
242.6,-12.182193326698457,9.079602694467352,-1.468955516277671
242.7,-12.178531523705729,9.044685823132099,-1.4690315162776713
242.8,-12.175015219972657,9.01117240466939,-1.4689585162776713
242.9,-12.17136069913795,8.976355693057453,-1.468890516277671
243.0,-12.16769600655714,8.94129979420593,-1.469743516277671
243.1,-12.164025970422859,8.90599545130349,-1.470134516277671
243.2,-12.160391404184534,8.871196817691535,-1.4687275162776712
243.3,-12.156715686342297,8.836256916441755,-1.468693516277671
243.4,-12.15316389958641,8.802551388752061,-1.468439516277671
243.5,-12.149363425550623,8.766663067293635,-1.467662516277671
243.6,-12.145728322595243,8.732574009408388,-1.4668725162776712
243.7,-12.1420929279179,8.699055082135281,-1.4641315162776711
243.8,-12.138279793393203,8.66448696396121,-1.4632075162776712
243.9,-12.134440659333379,8.629953573645881,-1.4623825162776711
244.0,-12.130639183666666,8.595978239640822,-1.4617925162776713
244.1,-12.126652265947527,8.560680382197335,-1.460288516277671
244.2,-12.12278880245141,8.52658218847957,-1.4612175162776713
244.3,-12.11895610986678,8.492578473071518,-1.4615135162776711
244.4,-12.114913280408231,8.456817826391557,-1.460493516277671
244.5,-12.111087408399566,8.423123929446064,-1.4604415162776712
244.6,-12.107113848634087,8.387974232608254,-1.4614565162776711
244.7,-12.103323498440123,8.354307505511501,-1.4613915162776712
244.8,-12.099388365653045,8.319180444206179,-1.462485516277671
244.9,-12.095583531175564,8.285153557137287,-1.4616225162776713
245.0,-12.091698659571186,8.25056660305605,-1.4615875162776713
245.1,-12.087845785713819,8.216322800754916,-1.4611885162776712
245.2,-12.083991455307103,8.182214138671569,-1.460717516277671
245.3,-12.079952793896545,8.146750583942653,-1.4593935162776712
245.4,-12.076056535660001,8.112913890712461,-1.4582025162776713
245.5,-12.072068374646658,8.078674712849496,-1.4567135162776712
245.6,-12.068133524174794,8.04518291908201,-1.456072516277671
245.7,-12.063947524522646,8.009664661130468,-1.4562625162776712
245.8,-12.059714622498564,7.973657849018666,-1.456501516277671
245.9,-12.055704895760673,7.939419630074226,-1.4571185162776712
246.0,-12.051829419087769,7.906260960535812,-1.4570705162776711
246.1,-12.047832073360631,7.872122860074045,-1.4566065162776711
246.2,-12.043861701368417,7.838215966051685,-1.4569535162776712
246.3,-12.039692106579945,7.802883107346226,-1.4547785162776712
246.4,-12.035677298719353,7.769059336447012,-1.4555905162776712
246.5,-12.031719170889103,7.735550864412623,-1.4558995162776711
246.6,-12.027707502803558,7.701678821970938,-1.4551255162776713
246.7,-12.023596454258083,7.666795002615013,-1.456922516277671
246.8,-12.019689933564816,7.633362600965218,-1.456933516277671
246.9,-12.015679312365304,7.599086537603246,-1.4568045162776713
247.0,-12.011609508288771,7.564258475702264,-1.4572555162776712
247.1,-12.007472705497612,7.528882008684385,-1.456628516277671
247.2,-12.003421213738052,7.494378185366929,-1.4562565162776713
247.3,-11.999260553476404,7.459131548319018,-1.4553675162776711
247.4,-11.99520683168469,7.424958209535175,-1.4550425162776712
247.5,-11.991125736584138,7.390577006127203,-1.4551525162776713
247.6,-11.98707003524159,7.356158922412097,-1.4566605162776711
247.7,-11.983133983599224,7.322567115859478,-1.4563685162776712
247.8,-11.979141494178489,7.288738457502616,-1.4549205162776713
247.9,-11.975224313903347,7.255903727479484,-1.4540955162776712
248.0,-11.971191278361475,7.222323884339319,-1.4532615162776712
248.1,-11.967056619495015,7.1879884184759,-1.4536795162776712
248.2,-11.963012280390966,7.154393173079988,-1.4533685162776713
248.3,-11.958965757687285,7.12108565712625,-1.451686516277671
248.4,-11.95493119565294,7.088093017247165,-1.4516025162776711
248.5,-11.95056394462391,7.052303811074781,-1.4522465162776712
248.6,-11.946333165757027,7.017529415894136,-1.4522835162776713
248.7,-11.94217058951839,6.983185546440368,-1.4530295162776712
248.8,-11.938089344442188,6.949416246601195,-1.4527075162776713
248.9,-11.933999087549749,6.91550267345483,-1.4535535162776712
249.0,-11.929920410071475,6.881565864190726,-1.4534505162776712
249.1,-11.925825969555419,6.847498760925837,-1.4535405162776711
249.2,-11.921806578202943,6.813932732129514,-1.4542955162776712
249.3,-11.917647363812542,6.779034593158293,-1.4547165162776712
249.4,-11.913553629873633,6.744618386039591,-1.4546775162776713
249.5,-11.909565120322062,6.711087801768554,-1.454628516277671
249.6,-11.905508732875514,6.677215336536696,-1.453157516277671
249.7,-11.90134351204389,6.642592994452086,-1.4534095162776712
249.8,-11.897343046426148,6.609475540974481,-1.452261516277671
249.9,-11.893125429693466,6.574728104247491,-1.4524035162776712
250.0,-11.888989986960446,6.540683690588245,-1.452126516277671
250.1,-11.884693655544533,6.505321457961263,-1.4522225162776712
250.2,-11.880424792751253,6.47025161800651,-1.4515905162776712
250.3,-11.876177804840164,6.435413025731805,-1.4518275162776713
250.4,-11.87193385619845,6.400489487810705,-1.4523725162776713
