t,x,y,theta
0.000,11.600000,9.500000,2.356194
0.100,11.574844,9.525173,2.355606
0.200,11.551037,9.549030,2.354686
0.300,11.526462,9.573662,2.355205
0.400,11.502783,9.597408,2.354164
0.500,11.478577,9.621722,2.353492
0.600,11.453687,9.646752,2.353079
0.700,11.429472,9.671099,2.353487
0.800,11.405092,9.695576,2.354621
0.900,11.381329,9.719393,2.355290
1.000,11.357611,9.743148,2.355268
1.100,11.333847,9.766934,2.355763
1.200,11.310873,9.789960,2.353958
1.300,11.287308,9.813584,2.355162
1.400,11.263338,9.837593,2.354893
1.500,11.239119,9.861860,2.354890
1.600,11.214838,9.886226,2.353311
1.700,11.190752,9.910409,2.354394
1.800,11.166430,9.934819,2.353674
1.900,11.141930,9.959403,2.354529
2.000,11.116922,9.984451,2.355584
2.100,11.094349,10.007056,2.354741
2.200,11.070209,10.031256,2.354539
2.300,11.045785,10.055761,2.354092
2.400,11.021934,10.079685,2.354925
2.500,10.997496,10.104164,2.355404
2.600,10.973199,10.128508,2.354689
2.700,10.953663,10.157937,1.958710
2.800,10.940325,10.190611,1.957643
2.900,10.927434,10.222210,1.958161
3.000,10.914546,10.253741,1.959047
3.100,10.901916,10.284606,1.959098
3.200,10.889089,10.316012,1.957695
3.300,10.875996,10.348111,1.958227
3.400,10.863998,10.377511,1.957872
3.500,10.851331,10.408551,1.958332
3.600,10.837973,10.441340,1.956678
3.700,10.825264,10.472591,1.957114
3.800,10.812402,10.504273,1.955319
3.900,10.799563,10.535996,1.954849
4.000,10.787145,10.566680,1.955171
4.100,10.774113,10.598855,1.955413
4.200,10.761642,10.629625,1.955724
4.300,10.748492,10.662022,1.956460
4.400,10.736273,10.692067,1.957030
4.500,10.723781,10.722770,1.956755
4.600,10.710724,10.754888,1.956513
4.700,10.698071,10.786047,1.955794
4.800,10.684707,10.819070,1.954214
4.900,10.671435,10.851875,1.955392
5.000,10.658234,10.884427,1.955822
5.100,10.644978,10.917083,1.956234
5.200,10.632133,10.948766,1.954871
5.300,10.619251,10.980602,1.954819
5.400,10.593015,10.999941,3.057204
5.500,10.558375,11.002858,3.057088
5.600,10.523628,11.005808,3.056023
5.700,10.488108,11.008854,3.055388
5.800,10.452872,11.011887,3.055173
5.900,10.419121,11.014806,3.054725
6.000,10.383854,11.017868,3.054457
6.100,10.348867,11.020875,3.056453
6.200,10.314676,11.023783,3.056138
6.300,10.281774,11.026595,3.055779
6.400,10.248062,11.029467,3.056774
6.500,10.213905,11.032350,3.057474
6.600,10.179258,11.035278,3.056544
6.700,10.145101,11.038166,3.057381
6.800,10.110146,11.041086,3.058565
6.900,10.074436,11.044036,3.059174
7.000,10.040499,11.046825,3.059386
7.100,10.005292,11.049696,3.060337
7.200,9.970179,11.052550,3.059963
7.300,9.935177,11.055417,3.059096
7.400,9.900696,11.058248,3.059518
7.500,9.867126,11.060991,3.060089
7.600,9.833110,11.063747,3.060864
7.700,9.798170,11.066529,3.062900
7.800,9.763759,11.069262,3.061267
7.900,9.727961,11.072130,3.061467
8.000,9.690764,11.074062,3.117391
8.100,9.656051,11.074905,3.116626
8.200,9.620315,11.075768,3.117550
8.300,9.586333,11.076574,3.117239
8.400,9.552782,11.077393,3.116193
8.500,9.519466,11.078241,3.115258
8.600,9.485871,11.079113,3.115136
8.700,9.451151,11.080006,3.115794
8.800,9.418863,11.080837,3.115201
8.900,9.384070,11.081737,3.115639
9.000,9.349611,11.082610,3.116150
9.100,9.315670,11.083449,3.116908
9.200,9.280332,11.084347,3.114794
9.300,9.245437,11.085292,3.113785
9.400,9.211913,11.086221,3.113561
9.500,9.176815,11.087200,3.113530
9.600,9.143202,11.088130,3.113927
9.700,9.108533,11.089056,3.115470
9.800,9.073968,11.089951,3.115627
9.900,9.040542,11.090832,3.114534
10.000,9.005584,11.091747,3.115987
10.100,8.973385,11.092587,3.114852
10.200,8.939613,11.093481,3.115240
10.300,8.904760,11.094416,3.114093
10.400,8.870197,11.095333,3.115775
10.500,8.835758,11.096205,3.116492
10.600,8.801411,11.097069,3.116219
10.700,8.765453,11.097979,3.116323
10.800,8.731247,11.098852,3.115854
10.900,8.697073,11.099712,3.117148
11.000,8.661564,11.100583,3.117035
11.100,8.627420,11.101435,3.116242
11.200,8.590974,11.102377,3.115263
11.300,8.555124,11.103313,3.115670
11.400,8.518736,11.104254,3.115734
11.500,8.483906,11.105145,3.116197
11.600,8.449927,11.105990,3.117220
11.700,8.414798,11.106859,3.116339
11.800,8.379010,11.107760,3.116498
11.900,8.343711,11.108668,3.115200
12.000,8.308362,11.109619,3.114184
12.100,8.274966,11.110549,3.113473
12.200,8.241843,11.111505,3.112057
12.300,8.207087,11.112518,3.112927
12.400,8.171301,11.113565,3.111887
12.500,8.136954,11.114605,3.110925
12.600,8.103515,11.115636,3.110908
12.700,8.068610,11.116709,3.111114
12.800,8.034680,11.117752,3.110795
12.900,7.999942,11.118833,3.110454
13.000,7.963815,11.119969,3.110112
13.100,7.928659,11.121090,3.109723
13.200,7.896058,11.111750,-2.551271
13.300,7.867613,11.092716,-2.552081
13.400,7.838491,11.073264,-2.553124
13.500,7.810623,11.054643,-2.551867
13.600,7.781108,11.034881,-2.551097
13.700,7.752958,11.016007,-2.550597
13.800,7.723786,10.996459,-2.551465
13.900,7.695081,10.977250,-2.551875
14.000,7.666846,10.958389,-2.553148
14.100,7.639075,10.939867,-2.553455
14.200,7.609333,10.920047,-2.553877
14.300,7.580641,10.900918,-2.553154
14.400,7.552175,10.881935,-2.553594
14.500,7.523854,10.863046,-2.552863
14.600,7.496261,10.844664,-2.554646
14.700,7.467023,10.825233,-2.554951
14.800,7.438434,10.806237,-2.554963
14.900,7.409719,10.787176,-2.555809
15.000,7.379951,10.767448,-2.556520
15.100,7.351191,10.748410,-2.556597
15.200,7.321798,10.728971,-2.557372
15.300,7.294555,10.710992,-2.558349
15.400,7.266012,10.692167,-2.557981
15.500,7.237172,10.673134,-2.557827
15.600,7.208303,10.654072,-2.557438
15.700,7.179180,10.634847,-2.558075
15.800,7.152183,10.617047,-2.558536
15.900,7.126623,10.594259,-2.267748
16.000,7.105282,10.568789,-2.268013
16.100,7.083412,10.542677,-2.267255
16.200,7.060600,10.515394,-2.266327
16.300,7.038266,10.488675,-2.266957
16.400,7.015880,10.461903,-2.266745
16.500,6.993952,10.435663,-2.266266
16.600,6.971496,10.408762,-2.265761
16.700,6.949865,10.382864,-2.266726
16.800,6.927749,10.356385,-2.265899
16.900,6.905573,10.329864,-2.267998
17.000,6.882592,10.302424,-2.267560
17.100,6.860373,10.275878,-2.267421
17.200,6.838561,10.249779,-2.265899
17.300,6.816279,10.223117,-2.267486
17.400,6.793856,10.196352,-2.268487
17.500,6.771600,10.169778,-2.267231
17.600,6.750060,10.144037,-2.267799
17.700,6.728929,10.118755,-2.266143
17.800,6.706869,10.092322,-2.266460
17.900,6.685824,10.067102,-2.265824
18.000,6.663320,10.040104,-2.265315
18.100,6.641646,10.014096,-2.265747
18.200,6.619424,9.987455,-2.266149
18.300,6.597211,9.960807,-2.265063
18.400,6.575069,9.934247,-2.266300
18.500,6.553703,9.908653,-2.266470
18.600,6.537333,9.878418,-1.867552
18.700,6.527148,9.845084,-1.866887
18.800,6.516674,9.810795,-1.867414
18.900,6.506575,9.777744,-1.867126
19.000,6.496846,9.745874,-1.866722
19.100,6.487083,9.713932,-1.867796
19.200,6.477119,9.681400,-1.867838
19.300,6.466969,9.648240,-1.867482
19.400,6.456978,9.615691,-1.869423
19.500,6.447160,9.583836,-1.869814
19.600,6.437030,9.551006,-1.870070
19.700,6.427022,9.518655,-1.871205
19.800,6.417173,9.486966,-1.872734
19.900,6.406897,9.454009,-1.872900
20.000,6.396864,9.421835,-1.872633
20.100,6.386947,9.390053,-1.873104
20.200,6.376888,9.357939,-1.874721
20.300,6.366513,9.324777,-1.872357
20.400,6.356113,9.291451,-1.873334
20.500,6.345947,9.258958,-1.873778
20.600,6.335572,9.225830,-1.873884
20.700,6.325489,9.193654,-1.874060
20.800,6.315265,9.161046,-1.874163
20.900,6.305141,9.128730,-1.873779
21.000,6.295116,9.096684,-1.873215
21.100,6.284917,9.064138,-1.874824
21.200,6.275021,9.032726,-1.876219
21.300,6.267919,8.997683,-1.664220
21.400,6.264639,8.962816,-1.663767
21.500,6.261287,8.927310,-1.664630
21.600,6.258028,8.892908,-1.664396
21.700,6.254796,8.858519,-1.663110
21.800,6.251570,8.823854,-1.662522
21.900,6.248416,8.789993,-1.663208
22.000,6.245255,8.756245,-1.663364
22.100,6.241948,8.720909,-1.662985
22.200,6.238723,8.686438,-1.663388
22.300,6.235495,8.652076,-1.663779
22.400,6.232309,8.618239,-1.663962
22.500,6.229154,8.584886,-1.664612
22.600,6.225691,8.548287,-1.664135
22.700,6.222422,8.513732,-1.664633
22.800,6.219052,8.478276,-1.665067
22.900,6.215669,8.442733,-1.664900
23.000,6.212537,8.409716,-1.664467
23.100,6.209305,8.375644,-1.664714
23.200,6.205975,8.340572,-1.664605
23.300,6.202604,8.305009,-1.664361
23.400,6.199179,8.268583,-1.663172
23.500,6.196068,8.235376,-1.663690
23.600,6.192898,8.201646,-1.663740
23.700,6.189628,8.166811,-1.663369
23.800,6.186364,8.132110,-1.664097
23.900,6.182989,8.096194,-1.663194
24.000,6.179785,8.061718,-1.662185
24.100,6.176572,8.026799,-1.661424
24.200,6.173356,7.991751,-1.661742
24.300,6.170180,7.957309,-1.662206
24.400,6.167027,7.923218,-1.662280
24.500,6.163723,7.887577,-1.662644
24.600,6.160599,7.853740,-1.661719
24.700,6.157341,7.818302,-1.661858
24.800,6.154202,7.784297,-1.662478
24.900,6.151091,7.750722,-1.662487
25.000,6.147799,7.715230,-1.662771
25.100,6.144517,7.680173,-1.663984
25.200,6.141330,7.646353,-1.663961
25.300,6.137962,7.610792,-1.664865
25.400,6.134631,7.576001,-1.665981
25.500,6.131412,7.542302,-1.664450
25.600,6.128252,7.508942,-1.664497
25.700,6.125169,7.476212,-1.663322
25.800,6.121907,7.441543,-1.664215
25.900,6.118722,7.408141,-1.665859
26.000,6.115362,7.373243,-1.666136
26.100,6.112028,7.338583,-1.665811
26.200,6.108643,7.303440,-1.666403
26.300,6.105399,7.269811,-1.666071
26.400,6.102154,7.236045,-1.665552
26.500,6.098770,7.200793,-1.665984
26.600,6.095420,7.166243,-1.667320
26.700,6.092018,7.131409,-1.667547
26.800,6.088473,7.095208,-1.667613
26.900,6.085082,7.060453,-1.666901
27.000,6.081690,7.025546,-1.666775
27.100,6.078320,6.990899,-1.667110
27.200,6.074988,6.956675,-1.666854
27.300,6.071592,6.921504,-1.665344
27.400,6.068395,6.888031,-1.664666
27.500,6.065120,6.853634,-1.664822
27.600,6.062092,6.822054,-1.666007
27.700,6.058620,6.785916,-1.665265
27.800,6.055474,6.753079,-1.665477
27.900,6.052027,6.717114,-1.665325
28.000,6.048725,6.682612,-1.665119
28.100,6.045405,6.647992,-1.665716
28.200,6.041977,6.612446,-1.666062
28.300,6.038572,6.577438,-1.667153
28.400,6.035107,6.541768,-1.665752
28.500,6.031826,6.507441,-1.663943
28.600,6.028632,6.473739,-1.663832
28.700,6.025455,6.440046,-1.663097
28.800,6.022248,6.405930,-1.663359
28.900,6.018979,6.371010,-1.662452
29.000,6.015792,6.336511,-1.661017
29.100,6.012670,6.302394,-1.660695
29.200,6.009478,6.267400,-1.660391
29.300,6.006192,6.231485,-1.661331
29.400,6.003048,6.197226,-1.661010
29.500,5.999765,6.161329,-1.660869
29.600,5.996551,6.125981,-1.659971
29.700,5.993525,6.092281,-1.658661
29.800,5.990357,6.056795,-1.658945
29.900,5.987239,6.021982,-1.659298
30.000,5.984083,5.986708,-1.658823
30.100,5.981106,5.953498,-1.659680
30.200,5.977942,5.918186,-1.658791
30.300,5.974686,5.881828,-1.659646
30.400,5.971586,5.847611,-1.660815
30.500,5.968473,5.813774,-1.662407
30.600,5.965268,5.779275,-1.662735
30.700,5.962166,5.745785,-1.661804
30.800,5.959083,5.712388,-1.662222
30.900,5.955818,5.677359,-1.663525
31.000,5.952575,5.642620,-1.662579
31.100,5.949449,5.608841,-1.662062
31.200,5.946251,5.574362,-1.662979
31.300,5.943024,5.539674,-1.662575
31.400,5.939864,5.505403,-1.661354
31.500,5.936801,5.471983,-1.661352
31.600,5.933665,5.437860,-1.661841
31.700,5.930421,5.402816,-1.662461
31.800,5.927202,5.367705,-1.660163
31.900,5.924019,5.332475,-1.659679
32.000,5.920874,5.297592,-1.659711
32.100,5.917690,5.262338,-1.659857
32.200,5.914536,5.227865,-1.661999
32.300,5.911394,5.194094,-1.662731
32.400,5.908138,5.159040,-1.661778
32.500,5.904914,5.123915,-1.660418
32.600,5.901694,5.088802,-1.661595
32.700,5.898541,5.054562,-1.661164
32.800,5.895246,5.018777,-1.661568
32.900,5.892073,4.984549,-1.662326
33.000,5.888913,4.950491,-1.661833
33.100,5.885796,4.916780,-1.661609
33.200,5.882637,4.882487,-1.661114
33.300,5.879382,4.847210,-1.661884
33.400,5.876144,4.812383,-1.662569
33.500,5.873023,4.778964,-1.662673
33.600,5.869888,4.745330,-1.662250
33.700,5.866751,4.711771,-1.663238
33.800,5.863551,4.677832,-1.663993
33.900,5.860116,4.641606,-1.664300
34.000,5.856715,4.605931,-1.665100
34.100,5.853413,4.571499,-1.665490
34.200,5.850071,4.536746,-1.665530
34.300,5.846791,4.502872,-1.666740
34.400,5.843496,4.469176,-1.667448
34.500,5.840137,4.435020,-1.667811
34.600,5.836837,4.401433,-1.667222
34.700,5.833340,4.365684,-1.667047
34.800,5.829835,4.329793,-1.666780
34.900,5.826552,4.296124,-1.666747
35.000,5.823361,4.263413,-1.666740
35.100,5.820001,4.229152,-1.667772
35.200,5.816746,4.195929,-1.666622
35.300,5.813116,4.158634,-1.666466
35.400,5.809800,4.124819,-1.668065
35.500,5.806369,4.090052,-1.667624
35.600,5.802861,4.054426,-1.667619
35.700,5.799421,4.019523,-1.667877
35.800,5.796128,3.986240,-1.668438
35.900,5.792674,3.951425,-1.668489
36.000,5.789109,3.915557,-1.668735
36.100,5.785634,3.880554,-1.668267
36.200,5.782227,3.846082,-1.667799
36.300,5.778713,3.810579,-1.668461
36.400,5.775216,3.775176,-1.667522
36.500,5.771910,3.741723,-1.668409
36.600,5.768484,3.707156,-1.668058
36.700,5.765017,3.672081,-1.667862
36.800,5.761598,3.637788,-1.669730
36.900,5.726815,3.642783,1.387359
37.000,5.733320,3.677481,1.386512
37.100,5.739537,3.710574,1.386591
37.200,5.746125,3.745604,1.385954
37.300,5.752192,3.777830,1.386157
37.400,5.758395,3.810825,1.386650
37.500,5.764839,3.845172,1.386822
37.600,5.771370,3.879826,1.385044
37.700,5.777879,3.914046,1.383372
37.800,5.784453,3.948522,1.384130
37.900,5.791219,3.984028,1.383494
38.000,5.797934,4.019125,1.382486
38.100,5.804612,4.053917,1.382273
38.200,5.811282,4.088657,1.382689
38.300,5.817892,4.123089,1.382251
38.400,5.824064,4.155216,1.382448
38.500,5.830693,4.189761,1.382680
38.600,5.837313,4.224229,1.382049
38.700,5.843939,4.258678,1.382043
38.800,5.850355,4.291903,1.380522
38.900,5.856856,4.325342,1.379416
39.000,5.863610,4.359848,1.378059
39.100,5.870421,4.394662,1.379630
39.200,5.877310,4.430054,1.380000
39.300,5.883648,4.462615,1.379632
39.400,5.890393,4.497181,1.379058
39.500,5.893194,4.532785,1.608163
39.600,5.892018,4.565749,1.607460
39.700,5.890792,4.601556,1.605367
39.800,5.889649,4.636290,1.604761
39.900,5.888490,4.671152,1.606077
40.000,5.887325,4.705449,1.606252
40.100,5.886142,4.740444,1.605605
40.200,5.884969,4.775484,1.605645
40.300,5.883846,4.808955,1.605743
40.400,5.882702,4.842789,1.606114
40.500,5.881477,4.878630,1.606620
40.600,5.880265,4.913261,1.607701
40.700,5.879010,4.948078,1.608775
40.800,5.877774,4.981772,1.609044
40.900,5.876476,5.017532,1.608085
41.000,5.875277,5.050738,1.608425
41.100,5.873972,5.085951,1.609953
41.200,5.872670,5.119712,1.611474
41.300,5.871294,5.154449,1.611908
41.400,5.869911,5.189051,1.612267
41.500,5.868561,5.222582,1.612521
41.600,5.867169,5.257604,1.611316
41.700,5.865846,5.291163,1.611855
41.800,5.864504,5.325072,1.611595
41.900,5.863087,5.361321,1.611020
42.000,5.861762,5.396276,1.609234
42.100,5.860521,5.430730,1.607294
42.200,5.851342,5.464961,2.061184
42.300,5.835733,5.494314,2.060904
42.400,5.819350,5.525178,2.059669
42.500,5.803069,5.555863,2.060574
42.600,5.786593,5.586859,2.061189
42.700,5.771014,5.616181,2.060177
42.800,5.755970,5.644460,2.062166
42.900,5.739717,5.674951,2.061806
43.000,5.723298,5.705781,2.061548
43.100,5.706679,5.737013,2.061053
43.200,5.690648,5.767188,2.060410
43.300,5.674159,5.798288,2.059329
43.400,5.658442,5.827946,2.060032
43.500,5.642967,5.857129,2.059658
43.600,5.626767,5.887651,2.060739
43.700,5.610013,5.919210,2.059831
43.800,5.593949,5.949514,2.059557
43.900,5.578790,5.978115,2.059694
44.000,5.563403,6.007159,2.059176
44.100,5.547261,6.037672,2.058551
44.200,5.531182,6.068100,2.058396
44.300,5.514997,6.098752,2.057857
44.400,5.498890,6.129267,2.058190
44.500,5.482995,6.159356,2.058744
44.600,5.467349,6.189019,2.056973
44.700,5.451545,6.219032,2.057281
44.800,5.435735,6.249010,2.058245
44.900,5.430841,6.283168,1.371262
45.000,5.437343,6.315142,1.372243
45.100,5.444095,6.348365,1.371602
45.200,5.450790,6.381302,1.372258
45.300,5.457481,6.414286,1.372432
45.400,5.464635,6.449542,1.372043
45.500,5.471507,6.483475,1.373114
45.600,5.478564,6.518390,1.372872
45.700,5.485113,6.550812,1.373424
45.800,5.491940,6.584735,1.374336
45.900,5.498671,6.618188,1.373347
46.000,5.505574,6.652481,1.374200
46.100,5.512261,6.685821,1.374800
46.200,5.518730,6.718153,1.375102
46.300,5.525548,6.752348,1.376159
46.400,5.532160,6.785526,1.375389
46.500,5.538978,6.819757,1.376275
46.600,5.545491,6.852468,1.375634
46.700,5.552259,6.886344,1.374984
46.800,5.559039,6.920143,1.374258
46.900,5.565948,6.954522,1.374083
47.000,5.572972,6.989426,1.373930
47.100,5.579820,7.023372,1.373073
47.200,5.586536,7.056688,1.374241
47.300,5.593481,7.091134,1.373080
47.400,5.600579,7.126234,1.373052
47.500,5.607558,7.160747,1.373034
47.600,5.614625,7.195675,1.372647
47.700,5.621745,7.230849,1.372969
47.800,5.628807,7.265748,1.372693
47.900,5.635694,7.299586,1.370708
48.000,5.642431,7.332486,1.370296
48.100,5.649498,7.366903,1.369594
48.200,5.656605,7.401418,1.369390
48.300,5.663349,7.434141,1.369093
48.400,5.670295,7.467725,1.368086
48.500,5.677533,7.502469,1.366338
48.600,5.684347,7.534985,1.365692
48.700,5.691400,7.568528,1.365173
48.800,5.698515,7.602344,1.365493
48.900,5.705991,7.637892,1.365358
49.000,5.713310,7.672499,1.363148
49.100,5.720664,7.706981,1.361883
49.200,5.728107,7.741747,1.361320
49.300,5.735574,7.776586,1.361561
49.400,5.742878,7.810713,1.361826
49.500,5.749838,7.843217,1.361325
49.600,5.756986,7.876529,1.360965
49.700,5.764243,7.910236,1.360048
49.800,5.771830,7.945434,1.360403
49.900,5.779148,7.979409,1.360270
50.000,5.786648,8.014165,1.359715
50.100,5.794141,8.048717,1.358203
50.200,5.801347,8.081746,1.357158
50.300,5.808454,8.114195,1.356646
50.400,5.816019,8.148688,1.356654
50.500,5.823232,8.181570,1.356591
50.600,5.830520,8.214786,1.356664
50.700,5.838054,8.248964,1.354745
50.800,5.845569,8.282877,1.354581
50.900,5.853130,8.316848,1.353047
51.000,5.860825,8.351230,1.352202
51.100,5.868302,8.384706,1.353823
51.200,5.875677,8.417850,1.353921
51.300,5.883354,8.452259,1.352779
51.400,5.891161,8.487168,1.353013
51.500,5.898958,8.521879,1.350885
51.600,5.906831,8.556762,1.350899
51.700,5.914780,8.592003,1.351131
51.800,5.922215,8.624883,1.349862
51.900,5.929733,8.658008,1.349637
52.000,5.937533,8.692455,1.350781
52.100,5.944928,8.725242,1.351250
52.200,5.952533,8.758942,1.350570
52.300,5.959892,8.791490,1.350359
52.400,5.967547,8.825258,1.349506
52.500,5.975269,8.859242,1.349324
52.600,5.982775,8.892217,1.348819
52.700,5.990239,8.924983,1.348972
52.800,5.997938,8.958761,1.348443
52.900,6.005400,8.991499,1.348997
53.000,6.012861,9.024310,1.349393
53.100,6.020659,9.058627,1.349145
53.200,6.028552,9.093351,1.349425
53.300,6.036107,9.126444,1.347087
53.400,6.043882,9.160344,1.347317
53.500,6.051345,9.192890,1.347097
53.600,6.058989,9.226222,1.347436
53.700,6.066747,9.260051,1.347044
53.800,6.074266,9.292774,1.346593
53.900,6.082130,9.326906,1.345866
54.000,6.090001,9.361011,1.346068
54.100,6.097868,9.395070,1.345510
54.200,6.105612,9.428456,1.344209
54.300,6.113644,9.462913,1.343487
54.400,6.121754,9.497628,1.343202
54.500,6.129550,9.530988,1.343419
54.600,6.137386,9.564555,1.343338
54.700,6.145125,9.597622,1.342251
54.800,6.152988,9.631121,1.341995
54.900,6.160863,9.664708,1.342918
55.000,6.168691,9.698075,1.341712
55.100,6.176639,9.731825,1.341278
55.200,6.184262,9.764144,1.340926
55.300,6.192225,9.797963,1.341888
55.400,6.200276,9.832189,1.341399
55.500,6.208202,9.865875,1.341624
55.600,6.215931,9.898822,1.342877
55.700,6.223948,9.933030,1.342068
55.800,6.231814,9.966529,1.342084
55.900,6.239494,9.999146,1.340740
