t,x,y,theta
137.100,2.098293,11.598547,-0.249325
137.200,2.131553,11.568734,-0.244570
137.300,2.165402,11.560280,-0.243594
137.400,2.199596,11.540273,-0.242413
137.500,2.234286,11.531644,-0.243856
137.600,2.268180,11.523171,-0.244616
137.700,2.302373,11.507764,-0.243856
137.800,2.335127,11.499586,-0.244227
137.900,2.366570,11.491738,-0.243746
138.000,2.399793,11.479106,-0.243778
138.100,2.432862,11.470874,-0.242963
138.200,2.466504,11.462513,-0.242936
138.300,2.498619,11.454514,-0.244011
138.400,2.537118,11.455575,-0.461905
138.500,2.567061,11.440653,-0.461756
138.600,2.596498,11.425956,-0.463214
138.700,2.626209,11.408923,-0.472029
138.800,2.655028,11.394183,-0.472279
138.900,2.683487,11.372072,-0.481828
139.000,2.714380,11.355891,-0.481879
139.100,2.744085,11.340307,-0.483114
139.200,2.773027,11.322765,-0.486374
139.300,2.802556,11.307123,-0.486608
139.400,2.831035,11.292006,-0.488266
139.500,2.860280,11.271844,-0.492133
139.600,2.890114,11.255807,-0.493075
139.700,2.919682,11.239899,-0.492821
139.800,2.948316,11.224518,-0.491872
139.900,2.977681,11.208166,-0.494041
140.000,3.007395,11.192123,-0.495151
140.100,3.037550,11.175804,-0.495915
140.200,3.064966,11.159161,-0.498236
140.300,3.094900,11.142877,-0.497152
140.400,3.122567,11.124624,-0.498970
140.500,3.152867,11.108091,-0.498803
140.600,3.182956,11.091657,-0.499961
140.700,3.209379,11.073705,-0.501732
140.800,3.240811,11.066262,0.037828
140.900,3.276817,11.067613,0.038381
141.000,3.312005,11.065930,0.030615
141.100,3.345498,11.066924,0.030175
141.200,3.380861,11.067959,0.029857
141.300,3.415029,11.068932,0.028512
141.400,3.447657,11.067013,0.022102
141.500,3.481578,11.067723,0.021315
141.600,3.516170,11.068426,0.020828
141.700,3.551894,11.066313,0.016830
141.800,3.586276,11.066876,0.017324
141.900,3.620727,11.065421,0.015009
142.000,3.656835,11.065922,0.014341
142.100,3.690671,11.066383,0.014612
142.200,3.725525,11.065023,0.014058
142.300,3.759847,11.065475,0.013959
142.400,3.793576,11.065896,0.012639
142.500,3.827718,11.064270,0.010860
142.600,3.861245,11.064630,0.012196
142.700,3.897098,11.065053,0.013156
142.800,3.932597,11.065474,0.012380
142.900,3.967229,11.064019,0.009946
143.000,4.001943,11.064311,0.008941
143.100,4.035965,11.064580,0.008856
143.200,4.071762,11.063342,0.008103
143.300,4.103855,11.063555,0.007331
143.400,4.138522,11.062270,0.006177
143.500,4.171464,11.062437,0.006120
143.600,4.205688,11.062611,0.006329
143.700,4.240041,11.060632,0.003320
143.800,4.273726,11.060677,0.001500
143.900,4.310230,11.060682,0.000894
144.000,4.345923,11.059795,0.000684
144.100,4.380042,11.059766,-0.000256
144.200,4.414195,11.059726,-0.000135
144.300,4.448803,11.059654,-0.002057
144.400,4.484847,11.058801,-0.003354
144.500,4.519499,11.058668,-0.002358
144.600,4.554386,11.058541,-0.003070
144.700,4.589836,11.057800,-0.003351
144.800,4.624335,11.057627,-0.004996
144.900,4.659624,11.057641,-0.006607
145.000,4.694284,11.057369,-0.007291
145.100,4.727975,11.057094,-0.007363
145.200,4.761551,11.056679,-0.006709
145.300,4.796239,11.056407,-0.007070
145.400,4.830480,11.056139,-0.006764
145.500,4.866173,11.055799,-0.005311
145.600,4.901102,11.055599,-0.004669
145.700,4.935252,11.055389,-0.006079
145.800,4.971381,11.055140,-0.006105
145.900,5.006575,11.055172,-0.005431
146.000,5.042714,11.054932,-0.006298
146.100,5.078238,11.054681,-0.006349
146.200,5.113640,11.054242,-0.006536
146.300,5.149204,11.053978,-0.006763
146.400,4.895589,11.053293,-0.007403
146.500,4.930613,11.053001,-0.007703
146.600,4.964464,11.052684,-0.009522
146.700,4.868374,11.052866,-0.008001
146.800,4.901510,11.052587,-0.007089
146.900,4.937202,11.052320,-0.006137
147.000,4.905544,11.052104,-0.006533
147.100,4.939455,11.051855,-0.006554
147.200,4.973210,11.051609,-0.006438
147.300,5.007796,11.051361,-0.006304
147.400,4.994703,11.051446,-0.005574
147.500,5.029590,11.051244,-0.004326
147.600,5.064682,11.051072,-0.003711
147.700,5.098555,11.040988,-0.573249
147.800,5.127086,11.022498,-0.574857
147.900,5.131374,11.004081,-0.576428
148.000,5.160583,10.985066,-0.575521
148.100,5.189423,10.966317,-0.575276
148.200,5.261965,10.949632,-0.568629
148.300,5.291798,10.930530,-0.568401
148.400,5.321485,10.911540,-0.567785
148.500,5.325575,10.892268,-0.569777
148.600,5.354324,10.873816,-0.569527
148.700,5.383197,10.855274,-0.570253
148.800,5.412023,10.836721,-0.571535
148.900,5.417551,10.818806,-0.572540
149.000,5.446524,10.800130,-0.570716
149.100,5.475999,10.781130,-0.572355
149.200,5.485905,10.763855,-0.573425
149.300,5.515531,10.744685,-0.572946
149.400,5.530388,10.727068,-0.572963
149.500,5.561073,10.707229,-0.572372
149.600,5.589629,10.688774,-0.572642
149.700,5.588587,10.669256,-0.574291
149.800,5.618211,10.650028,-0.574732
149.900,5.646925,10.631389,-0.574297
150.000,5.619397,10.612593,-0.575173
150.100,5.641047,10.585456,-1.217343
150.200,5.652908,10.553133,-1.218601
150.300,5.664272,10.522099,-1.218725
150.400,5.663865,10.495112,-1.209144
150.500,5.675364,10.464594,-1.209319
150.600,5.687192,10.433208,-1.209040
150.700,5.699157,10.403652,-1.204488
150.800,5.710983,10.372700,-1.204782
150.900,5.689400,10.339908,-1.207911
151.000,5.701159,10.308792,-1.208562
151.100,5.712773,10.278054,-1.207997
151.200,5.751455,10.248142,-1.203028
151.300,5.763268,10.217356,-1.203262
151.400,5.775334,10.185870,-1.203787
151.500,5.760056,10.153392,-1.207308
151.600,5.771529,10.123136,-1.206939
151.700,5.783123,10.092579,-1.207007
151.800,5.795186,10.060779,-1.207094
151.900,5.808310,10.032191,-1.205760
152.000,5.820333,10.000611,-1.205989
152.100,5.832707,9.968115,-1.205649
152.200,5.845925,9.940222,-1.204095
152.300,5.857975,9.908748,-1.203976
152.400,5.893602,9.878746,-1.197187
152.500,5.906535,9.848243,-1.140228
152.600,5.920436,9.817872,-1.140853
152.700,5.935011,9.787510,-1.140029
152.800,5.949448,9.756069,-1.138679
152.900,5.963985,9.724482,-1.138272
153.000,5.980521,9.691681,-1.135883
153.100,5.995117,9.660197,-1.135481
153.200,6.010168,9.627818,-1.133869
153.300,6.024655,9.596700,-1.134284
153.400,6.039203,9.566515,-1.134253
153.500,6.053561,9.535623,-1.135186
153.600,6.068451,9.503571,-1.134543
153.700,6.082155,9.472846,-1.134311
153.800,6.096991,9.440915,-1.135151
153.900,6.112441,9.407755,-1.134771
154.000,6.127465,9.375430,-1.134533
154.100,6.141726,9.344766,-1.134415
154.200,6.155369,9.313759,-1.133497
154.300,6.170251,9.281815,-1.133995
154.400,6.184664,9.250878,-1.133501
154.500,6.200696,9.222688,-1.133022
154.600,6.215495,9.190987,-1.133000
154.700,6.230285,9.159284,-1.133597
154.800,6.244963,9.127817,-1.133291
154.900,6.263571,9.101389,-1.351636
155.000,6.270907,9.068269,-1.352087
155.100,6.277983,9.036349,-1.351378
155.200,6.285332,9.003193,-1.352155
155.300,6.292400,8.971291,-1.351397
155.400,6.299686,8.938471,-1.351301
155.500,6.306786,8.906481,-1.351509
155.600,6.314135,8.873345,-1.351645
155.700,6.319148,8.839255,-1.352255
155.800,6.326405,8.806385,-1.352717
155.900,6.333857,8.772676,-1.351885
156.000,6.339652,8.739197,-1.353569
156.100,6.346701,8.707101,-1.353637
156.200,6.353953,8.674084,-1.353509
156.300,6.361206,8.641153,-1.352465
156.400,6.371839,8.608938,-1.350470
156.500,6.379269,8.575631,-1.350069
156.600,6.386667,8.542513,-1.349891
156.700,6.392576,8.509340,-1.351493
156.800,6.399922,8.476278,-1.350627
156.900,6.406070,8.441857,-1.351430
157.000,6.413551,8.408195,-1.350675
157.100,6.421037,8.374456,-1.351896
157.200,6.428842,8.340399,-1.353281
157.300,6.433016,8.306177,-1.543115
157.400,6.433957,8.270830,-1.542817
157.500,6.433128,8.234372,-1.543973
157.600,6.434017,8.199563,-1.543932
157.700,6.434907,8.163903,-1.545213
157.800,6.435743,8.129177,-1.545652
157.900,6.434825,8.094310,-1.545965
158.000,6.435590,8.060549,-1.547469
158.100,6.436367,8.026137,-1.546177
158.200,6.435518,7.990976,-1.547577
158.300,6.436272,7.956667,-1.547370
158.400,6.435690,7.921234,-1.548844
158.500,6.436449,7.885125,-1.547991
158.600,6.437237,7.849317,-1.546981
158.700,6.436254,7.813364,-1.548791
158.800,6.436942,7.779587,-1.549244
158.900,6.437661,7.744846,-1.548146
159.000,6.436578,7.709552,-1.550098
159.100,6.437213,7.676539,-1.550352
159.200,6.437871,7.641835,-1.550646
159.300,6.438522,7.607451,-1.550444
159.400,6.437278,7.572343,-1.551827
159.500,6.437924,7.536471,-1.550996
159.600,6.438551,7.502012,-1.551395
159.700,6.434592,7.465418,-1.555788
159.800,6.435049,7.429977,-1.557112
159.900,6.431920,7.394812,-1.558872
160.000,6.432268,7.359923,-1.559827
160.100,6.432584,7.325786,-1.560215
160.200,6.430494,7.291372,-1.560698
160.300,6.430779,7.256764,-1.561108
160.400,6.431049,7.220419,-1.562248
160.500,6.430009,7.186680,-1.563218
160.600,6.430221,7.151346,-1.562959
160.700,6.430399,7.117343,-1.564786
160.800,6.430544,7.082156,-1.565311
160.900,6.429802,7.049669,-1.565722
161.000,6.429904,7.014225,-1.566900
161.100,6.429965,6.977699,-1.568072
161.200,6.428767,6.942969,-1.569676
161.300,6.428720,6.907502,-1.571059
161.400,6.425772,6.871255,-1.571255
161.500,6.425697,6.837337,-1.571418
161.600,6.425633,6.802505,-1.570489
161.700,6.424076,6.767570,-1.571645
161.800,6.423986,6.731966,-1.571824
161.900,6.423902,6.696552,-1.571475
162.000,6.424536,6.663078,-1.572477
162.100,6.424436,6.630329,-1.572319
162.200,6.424344,6.595927,-1.571742
162.300,6.424270,6.561236,-1.571265
162.400,6.422823,6.525349,-1.572532
162.500,6.422681,6.489505,-1.573955
162.600,6.422532,6.454234,-1.573060
162.700,6.421774,6.419274,-1.574225
162.800,6.421595,6.383657,-1.574234
162.900,6.420312,6.348310,-1.575246
163.000,6.420124,6.314799,-1.574321
163.100,6.419946,6.281610,-1.574878
163.200,6.420279,6.246251,-1.576807
163.300,6.420019,6.211483,-1.576589
163.400,6.419753,6.176227,-1.576966
163.500,6.418987,6.140592,-1.576101
163.600,6.418712,6.105883,-1.578247
163.700,6.418412,6.071887,-1.577921
163.800,6.418093,6.037386,-1.579000
163.900,6.412729,6.003464,-1.579129
164.000,6.412397,5.971108,-1.579936
164.100,6.412014,5.935597,-1.580148
164.200,6.411717,5.902083,-1.580716
164.300,6.411309,5.867633,-1.581565
164.400,6.411023,5.831452,-1.582231
164.500,6.410548,5.795177,-1.582275
164.600,6.410097,5.760148,-1.581827
164.700,6.411226,5.726089,-1.581620
164.800,6.410795,5.691441,-1.581566
164.900,6.410363,5.657136,-1.581930
165.000,6.410342,5.622146,-1.581312
165.100,6.409906,5.587651,-1.582236
165.200,6.409434,5.552746,-1.583105
165.300,6.408933,5.517291,-1.583314
165.400,6.408224,5.482865,-1.583624
165.500,6.407734,5.448597,-1.583137
165.600,6.407289,5.414732,-1.581422
165.700,6.405727,5.380951,-1.581652
165.800,6.405324,5.346156,-1.579940
165.900,6.406276,5.312272,-1.579123
166.000,6.405911,5.277163,-1.580167
166.100,6.405534,5.242109,-1.579919
166.200,6.406057,5.205391,-1.579749
166.300,6.405669,5.170702,-1.581195
166.400,6.405235,5.135902,-1.582232
166.500,6.405360,5.101840,-1.581642
166.600,6.404944,5.067277,-1.580843
166.700,6.404522,5.030537,-1.580486
166.800,6.404142,4.995651,-1.579695
166.900,6.403785,4.959976,-1.579729
167.000,6.403431,4.926626,-1.579701
167.100,6.403066,4.891897,-1.579595
167.200,6.404043,4.858459,-1.578038
167.300,6.403732,4.822289,-1.577237
167.400,6.403438,4.787841,-1.578072
167.500,6.403117,4.753162,-1.578554
167.600,6.402779,4.719582,-1.579639
167.700,6.402854,4.684872,-1.579227
167.800,6.402531,4.650835,-1.577905
167.900,6.402214,4.617704,-1.579373
168.000,6.401985,4.582326,-1.579269
168.100,6.401626,4.548073,-1.579758
168.200,6.401245,4.513794,-1.580613
168.300,6.400820,4.478469,-1.581554
168.400,6.400880,4.443381,-1.582913
168.500,6.400412,4.409297,-1.582824
168.600,6.399947,4.374535,-1.582122
168.700,6.399490,4.339905,-1.582526
168.800,6.399006,4.305140,-1.583535
168.900,6.398486,4.270018,-1.584349
169.000,6.397951,4.236194,-1.585394
169.100,6.397399,4.201752,-1.584664
169.200,6.396853,4.167346,-1.584891
169.300,6.396309,4.133102,-1.584702
169.400,6.395758,4.099391,-1.585683
169.500,6.395142,4.063228,-1.586160
169.600,6.394556,4.028405,-1.585233
169.700,6.393962,3.992893,-1.585948
169.800,6.393369,3.959138,-1.586872
169.900,6.392747,3.924494,-1.586801
170.000,6.392121,3.890295,-1.587559
170.100,6.391466,3.854947,-1.587228
170.200,6.390716,3.820720,-1.587086
170.300,6.390055,3.785590,-1.587936
170.400,6.390557,3.751388,-1.587964
170.500,6.389900,3.717129,-1.587859
170.600,6.389256,3.682690,-1.587094
170.700,6.388615,3.647518,-1.587026
170.800,6.387948,3.610311,-1.586656
170.900,6.387282,3.573570,-1.587269
171.000,6.386586,3.539606,-1.586829
171.100,6.420963,3.539885,1.607252
171.200,6.419793,3.574876,1.605428
171.300,6.418711,3.608716,1.604244
171.400,6.424198,3.642539,1.531874
171.500,6.425657,3.677649,1.530724
171.600,6.427100,3.712039,1.531213
171.700,6.432129,3.746220,1.500957
171.800,6.434605,3.780546,1.500904
171.900,6.419258,3.816573,1.547279
172.000,6.420212,3.852880,1.546218
172.100,6.421116,3.886798,1.546469
172.200,6.424376,3.921349,1.537793
172.300,6.425614,3.955549,1.535815
172.400,6.426885,3.989871,1.536262
172.500,6.430858,4.023664,1.525801
172.600,6.432481,4.058563,1.527324
172.700,6.433998,4.091902,1.527742
172.800,6.435637,4.127812,1.526957
172.900,6.438707,4.161477,1.525221
173.000,6.440379,4.196802,1.526140
173.100,6.441956,4.229881,1.524562
173.200,6.444977,4.265716,1.520622
173.300,6.446829,4.300483,1.519090
173.400,6.451017,4.336408,1.457446
173.500,6.454960,4.370404,1.457733
173.600,6.458787,4.403341,1.457077
173.700,6.463512,4.436548,1.455183
173.800,6.467410,4.469555,1.455833
173.900,6.471580,4.505116,1.456826
174.000,6.476432,4.538027,1.456477
174.100,6.480279,4.570740,1.455511
174.200,6.484260,4.604203,1.453692
174.300,6.488271,4.637488,1.452566
174.400,6.492386,4.670329,1.451684
174.500,6.496562,4.704476,1.451132
174.600,6.500607,4.737458,1.450924
174.700,6.504934,4.769745,1.451013
174.800,6.509077,4.803444,1.450720
174.900,6.513974,4.836970,1.450408
175.000,6.518185,4.871031,1.449989
175.100,6.522325,4.904349,1.449241
175.200,6.528411,4.937757,1.448876
175.300,6.532653,4.971710,1.448942
175.400,6.536778,5.004708,1.448552
175.500,6.534920,5.037756,1.453126
175.600,6.539020,5.071468,1.451129
175.700,6.543171,5.105282,1.450976
175.800,6.557699,5.134682,0.777442
175.900,6.580586,5.155814,0.777583
176.000,6.604593,5.179337,0.777632
176.100,6.628201,5.202443,0.776509
176.200,6.649482,5.224573,0.782091
176.300,6.673989,5.248783,0.781354
176.400,6.698341,5.270913,0.781012
176.500,6.722896,5.295084,0.778906
176.600,6.747061,5.318825,0.779133
176.700,6.772049,5.342324,0.779784
176.800,6.796481,5.366375,0.779917
176.900,6.820777,5.390318,0.781097
177.000,6.846291,5.413888,0.779553
177.100,6.870620,5.437838,0.780359
177.200,6.893498,5.460384,0.780422
177.300,6.918628,5.485137,0.779996
177.400,6.942025,5.508854,0.781351
177.500,6.964785,5.531340,0.782258
177.600,6.988387,5.554686,0.782390
177.700,7.013464,5.576571,0.781948
177.800,7.036710,5.599523,0.780903
177.900,7.060221,5.621452,0.778930
178.000,7.083854,5.644636,0.777630
178.100,7.108490,5.668766,0.777389
178.200,7.131781,5.692145,0.776335
178.300,7.149112,5.721138,1.292748
178.400,7.158664,5.754266,1.292415
178.500,7.170845,5.788448,1.286663
178.600,7.180660,5.821754,1.286838
178.700,7.190298,5.854487,1.287365
178.800,7.200242,5.888193,1.285764
178.900,7.211575,5.920075,1.282842
179.000,7.221870,5.954447,1.282174
179.100,7.231524,5.986643,1.282352
179.200,7.241962,6.019751,1.280850
179.300,7.251870,6.052624,1.280811
179.400,7.262855,6.085924,1.278853
179.500,7.273202,6.119913,1.277444
179.600,7.283274,6.152862,1.276468
179.700,7.295437,6.185755,1.275242
179.800,7.305904,6.219767,1.274760
179.900,7.316434,6.253916,1.274208
180.000,7.326639,6.287355,1.274644
180.100,7.337020,6.321045,1.274754
180.200,7.346949,6.353307,1.275377
180.300,7.357173,6.386596,1.275820
180.400,7.367315,6.420162,1.276357
180.500,7.377493,6.453422,1.276645
180.600,7.387892,6.487425,1.276638
180.700,7.414154,6.511939,1.529036
180.800,7.415722,6.546504,1.527234
180.900,7.414914,6.580513,1.532736
181.000,7.416305,6.614225,1.531818
181.100,7.417793,6.649562,1.531137
181.200,7.416338,6.684765,1.533988
181.300,7.417643,6.717790,1.534527
181.400,7.418919,6.750429,1.534808
181.500,7.415658,6.787549,1.540045
181.600,7.416861,6.823627,1.540804
181.700,7.418018,6.858150,1.539740
181.800,7.419217,6.893138,1.539372
181.900,7.420553,6.929086,1.538899
182.000,7.421772,6.963886,1.538771
182.100,7.423002,6.998962,1.538714
182.200,7.421649,7.035299,1.540298
182.300,7.422807,7.069751,1.539952
182.400,7.421094,7.104863,1.542165
182.500,7.422175,7.139384,1.542805
182.600,7.423209,7.173278,1.543728
182.700,7.424684,7.207074,1.542607
182.800,7.425742,7.240502,1.541741
182.900,7.426829,7.274528,1.541898
183.000,7.429462,7.308255,1.540645
183.100,7.430612,7.342429,1.539714
183.200,7.431801,7.377673,1.540447
183.300,7.432966,7.412302,1.539949
183.400,7.434110,7.445920,1.539590
183.500,7.435326,7.481699,1.539879
183.600,7.436479,7.515571,1.539351
183.700,7.436394,7.547335,1.540947
183.800,7.437520,7.581856,1.541192
183.900,7.436391,7.616435,1.541196
184.000,7.437479,7.650106,1.541487
184.100,7.438564,7.683902,1.541735
184.200,7.436655,7.720167,1.542461
184.300,7.437774,7.755365,1.541431
184.400,7.438906,7.790351,1.541328
184.500,7.439034,7.824413,1.541537
184.600,7.440161,7.858817,1.540366
184.700,7.441324,7.893570,1.540098
184.800,7.442545,7.929178,1.538787
184.900,7.439661,7.963959,1.541395
185.000,7.440792,7.998737,1.540985
185.100,7.441950,8.034159,1.541319
185.200,7.442396,8.068102,1.541560
185.300,7.443487,8.101389,1.540663
185.400,7.443492,8.135763,1.539897
185.500,7.444708,8.171593,1.539977
185.600,7.445874,8.205286,1.538740
185.700,7.446034,8.241802,1.540241
185.800,7.447225,8.276932,1.539912
185.900,7.448465,8.313180,1.539756
186.000,7.448492,8.348717,1.539223
186.100,7.449678,8.382318,1.538288
186.200,7.450893,8.415860,1.537320
186.300,7.452204,8.451342,1.537072
186.400,7.448389,8.484978,1.538230
186.500,7.449628,8.519489,1.538337
186.600,7.450898,8.554718,1.537838
186.700,7.447350,8.590640,1.540687
186.800,7.448569,8.626499,1.539969
186.900,7.445742,8.662879,1.541930
187.000,7.446888,8.697769,1.540959
187.100,7.448027,8.732142,1.541378
187.200,7.442640,8.768445,1.542799
187.300,7.443747,8.803479,1.542653
187.400,7.444864,8.838237,1.541862
187.500,7.438283,8.873532,1.543730
187.600,7.439337,8.908521,1.544647
187.700,7.440378,8.944016,1.545399
187.800,7.441374,8.978108,1.544880
187.900,7.410842,9.014464,1.553717
188.000,7.411582,9.049183,1.552564
188.100,7.412344,9.083559,1.551951
188.200,7.386308,9.117855,1.557486
188.300,7.386900,9.151883,1.556839
188.400,7.366821,9.189415,1.562009
188.500,7.367250,9.223311,1.561796
188.600,7.367710,9.257347,1.560420
188.700,7.351013,9.292044,1.564538
188.800,7.351381,9.327235,1.563877
188.900,7.351723,9.361143,1.565116
189.000,7.335927,9.396487,1.570035
189.100,7.336129,9.431874,1.567777
189.200,7.336376,9.466722,1.567240
189.300,7.336642,9.502653,1.567255
189.400,7.321490,9.537631,1.570884
189.500,7.321626,9.573222,1.570855
189.600,7.321763,9.608261,1.570614
189.700,7.305430,9.642213,1.574151
189.800,7.305425,9.674998,1.575401
189.900,7.292759,9.709867,1.577701
190.000,7.292662,9.745342,1.577213
190.100,7.292607,9.780946,1.575357
190.200,7.290892,9.815651,1.574575
190.300,7.290890,9.849215,1.575139
190.400,7.290883,9.882605,1.574966
190.500,7.285071,9.918834,1.575256
190.600,7.285052,9.953909,1.575591
190.700,7.285026,9.988463,1.575530
190.800,7.285018,10.023261,1.574646
190.900,7.275640,10.056991,1.576160
191.000,7.275620,10.092429,1.574883
191.100,7.275638,10.126736,1.574051
191.200,7.279248,10.161534,1.573484
