t,x,y,theta
0.000,-11.700000,-11.700000,0.000000
0.100,-11.666068,-11.700027,-0.001625
0.200,-11.630809,-11.700087,-0.001868
0.300,-11.594713,-11.700136,-0.001011
0.400,-11.559503,-11.700179,-0.001690
0.500,-11.526314,-11.700236,-0.001945
0.600,-11.493195,-11.700296,-0.002015
0.700,-11.458874,-11.700376,-0.002963
0.800,-11.423519,-11.700471,-0.002791
0.900,-11.390124,-11.700551,-0.002370
1.000,-11.354348,-11.700606,-0.001155
1.100,-11.321154,-11.700658,-0.002285
1.200,-11.286283,-11.700740,-0.002891
1.300,-11.251457,-11.700826,-0.002571
1.400,-11.216547,-11.700921,-0.003660
1.500,-11.180666,-11.701018,-0.002405
1.600,-11.147649,-11.701107,-0.003580
1.700,-11.112271,-11.701208,-0.002821
1.800,-11.075801,-11.701288,-0.002365
1.900,-11.041500,-11.701362,-0.002600
2.000,-11.006443,-11.701438,-0.002313
2.100,-10.972529,-11.701497,-0.001909
2.200,-10.937843,-11.701547,-0.001647
2.300,-10.903443,-11.701596,-0.001865
2.400,-10.869344,-11.701640,-0.001508
2.500,-10.835549,-11.701659,-0.000350
2.600,-10.801251,-11.701692,-0.002047
2.700,-10.765999,-11.701768,-0.002889
2.800,-10.731340,-11.701852,-0.002652
2.900,-10.696788,-11.701979,-0.005235
3.000,-10.661331,-11.702126,-0.003609
3.100,-10.627323,-11.702257,-0.004692
3.200,-10.594264,-11.702418,-0.005657
3.300,-10.559561,-11.702605,-0.005827
3.400,-10.526022,-11.702805,-0.006744
3.500,-10.491351,-11.703028,-0.006970
3.600,-10.457259,-11.703242,-0.006420
3.700,-10.422367,-11.703459,-0.006735
3.800,-10.386347,-11.703689,-0.006956
3.900,-10.352372,-11.703914,-0.007278
4.000,-10.319904,-11.704154,-0.008564
4.100,-10.284877,-11.704428,-0.008054
4.200,-10.251513,-11.704668,-0.007333
4.300,-10.217886,-11.704892,-0.007201
4.400,-10.183164,-11.705138,-0.008103
4.500,-10.148874,-11.705389,-0.007764
4.600,-10.115082,-11.705637,-0.008224
4.700,-10.079820,-11.705885,-0.007064
4.800,-10.046049,-11.706091,-0.006192
4.900,-10.011152,-11.706288,-0.006184
5.000,-9.975251,-11.706492,-0.006147
5.100,-9.940780,-11.706685,-0.005904
5.200,-9.906929,-11.706891,-0.006915
5.300,-9.871456,-11.707102,-0.005710
5.400,-9.838404,-11.707271,-0.005346
5.500,-9.804294,-11.707429,-0.004646
5.600,-9.770629,-11.707586,-0.005294
5.700,-9.736905,-11.707741,-0.004487
5.800,-9.702703,-11.707890,-0.004969
5.900,-9.668881,-11.708035,-0.004541
6.000,-9.635310,-11.708183,-0.005173
6.100,-9.601861,-11.708325,-0.004140
6.200,-9.566328,-11.708449,-0.003667
6.300,-9.530878,-11.708566,-0.003866
6.400,-9.497412,-11.708687,-0.004414
6.500,-9.464628,-11.708808,-0.003980
6.600,-9.430491,-11.708933,-0.004484
6.700,-9.397206,-11.709050,-0.003755
6.800,-9.362963,-11.709158,-0.003761
6.900,-9.328865,-11.709284,-0.004911
7.000,-9.294983,-11.709434,-0.005175
7.100,-9.259730,-11.709566,-0.003654
7.200,-9.225015,-11.709658,-0.002928
7.300,-9.191863,-11.709742,-0.003347
7.400,-9.156645,-11.709819,-0.002263
7.500,-9.122922,-11.709864,-0.001561
7.600,-9.088088,-11.709916,-0.002467
7.700,-9.054688,-11.709981,-0.002402
7.800,-9.019695,-11.710064,-0.003388
7.900,-8.985615,-11.710143,-0.002327
8.000,-8.951187,-11.710201,-0.002181
8.100,-8.916170,-11.710259,-0.002336
8.200,-8.881995,-11.710342,-0.003810
8.300,-8.847474,-11.710439,-0.003076
8.400,-8.812746,-11.710520,-0.002921
8.500,-8.778702,-11.710614,-0.003829
8.600,-8.744166,-11.710755,-0.005578
8.700,-8.710400,-11.710925,-0.005589
8.800,-8.675732,-11.711099,-0.005706
8.900,-8.641414,-11.711276,-0.005835
9.000,-8.608372,-11.711459,-0.006621
9.100,-8.573310,-11.711662,-0.006476
9.200,-8.538851,-11.711863,-0.006599
9.300,-8.505773,-11.712044,-0.005772
9.400,-8.471240,-11.712223,-0.005967
9.500,-8.438580,-11.712389,-0.005764
9.600,-8.403110,-11.712569,-0.005916
9.700,-8.368473,-11.712742,-0.005542
9.800,-8.333136,-11.712922,-0.006221
9.900,-8.298387,-11.713118,-0.006579
10.000,-8.263471,-11.713308,-0.005888
10.100,-8.228353,-11.713455,-0.003891
10.200,-8.195473,-11.713559,-0.003751
10.300,-8.160760,-11.713688,-0.004969
10.400,-8.125010,-11.713826,-0.004017
10.500,-8.090663,-11.713927,-0.003236
10.600,-8.056873,-11.714021,-0.003840
10.700,-8.022568,-11.714138,-0.004578
10.800,-7.989407,-11.714270,-0.005037
10.900,-7.955336,-11.714403,-0.004343
11.000,-7.920050,-11.714518,-0.003875
11.100,-7.885647,-11.714625,-0.004068
11.200,-7.850125,-11.714748,-0.004573
11.300,-7.813823,-11.714869,-0.003856
11.400,-7.779659,-11.714960,-0.003080
11.500,-7.746335,-11.715044,-0.003740
11.600,-7.711575,-11.715155,-0.004396
11.700,-7.676569,-11.715262,-0.003366
11.800,-7.640797,-11.715341,-0.002540
11.900,-7.606527,-11.715394,-0.002068
12.000,-7.571793,-11.715456,-0.002845
12.100,-7.535076,-11.715531,-0.002637
12.200,-7.500020,-11.715578,-0.001492
12.300,-7.466295,-11.715604,-0.001506
12.400,-7.431020,-11.715638,-0.001907
12.500,-7.396210,-11.715662,-0.000738
12.600,-7.361526,-11.715659,-0.000397
12.700,-7.326918,-11.715659,-0.000987
12.800,-7.291983,-11.715682,-0.001594
12.900,-7.256885,-11.715726,-0.002219
13.000,-7.220958,-11.715777,-0.001983
13.100,-7.186234,-11.715800,-0.000798
13.200,-7.151546,-11.715791,-0.000127
13.300,-7.117361,-11.715758,0.000565
13.400,-7.083481,-11.715732,-0.000552
13.500,-7.049699,-11.715739,-0.001361
13.600,-7.014444,-11.715782,-0.002659
13.700,-6.979490,-11.715864,-0.003554
13.800,-6.945026,-11.715934,-0.001931
13.900,-6.909470,-11.715965,-0.001107
14.000,-6.874856,-11.715966,-0.000250
14.100,-6.839183,-11.715969,-0.001052
14.200,-6.804947,-11.715976,-0.000468
14.300,-6.769531,-11.715995,-0.001645
14.400,-6.733728,-11.716069,-0.003550
14.500,-6.699879,-11.716180,-0.004086
14.600,-6.666532,-11.716285,-0.003282
14.700,-6.630857,-11.716380,-0.003094
14.800,-6.595676,-11.716491,-0.004112
14.900,-6.559240,-11.716606,-0.003195
15.000,-6.523335,-11.716706,-0.003368
15.100,-6.489417,-11.716806,-0.003574
15.200,-6.453499,-11.716923,-0.004065
15.300,-6.418883,-11.717070,-0.005416
15.400,-6.384863,-11.717222,-0.004495
15.500,-6.348661,-11.717361,-0.004282
15.600,-6.313818,-11.717501,-0.004942
15.700,-6.279838,-11.717668,-0.006007
15.800,-6.245551,-11.717849,-0.005733
15.900,-6.210395,-11.718002,-0.003990
16.000,-6.175924,-11.718086,-0.001849
16.100,-6.142387,-11.718142,-0.002394
16.200,-6.108185,-11.718185,-0.000948
16.300,-6.074157,-11.718184,0.000250
16.400,-6.039236,-11.718163,0.000011
16.500,-6.005487,-11.718134,0.000846
16.600,-5.971015,-11.718094,0.000487
16.700,-5.936085,-11.718063,0.000244
16.800,-5.902360,-11.718017,0.001352
16.900,-5.866736,-11.717942,0.001670
17.000,-5.833275,-11.717870,0.001461
17.100,-5.798747,-11.717790,0.002054
17.200,-5.764744,-11.717684,0.003103
17.300,-5.730658,-11.717588,0.001563
17.400,-5.696218,-11.717515,0.001847
17.500,-5.661595,-11.717432,0.002170
17.600,-5.626912,-11.717324,0.003354
17.700,-5.593748,-11.717206,0.003099
17.800,-5.559160,-11.717076,0.003709
17.900,-5.524252,-11.716913,0.004885
18.000,-5.488733,-11.716719,0.005220
18.100,-5.454543,-11.716528,0.005273
18.200,-5.420173,-11.716330,0.005386
18.300,-5.385768,-11.716123,0.005932
18.400,-5.351390,-11.715888,0.007003
18.500,-5.318337,-11.715644,0.007028
18.600,-5.284739,-11.715420,0.005665
18.700,-5.251039,-11.715206,0.006282
18.800,-5.215859,-11.714961,0.007184
18.900,-5.181472,-11.714701,0.007489
19.000,-5.147391,-11.714448,0.006884
19.100,-5.112816,-11.714184,0.007905
19.200,-5.078007,-11.713901,0.007920
19.300,-5.043275,-11.713605,0.008614
19.400,-5.009570,-11.713325,0.007446
19.500,-4.974777,-11.713054,0.007716
19.600,-4.939504,-11.712763,0.008334
19.700,-4.904374,-11.712475,0.007642
19.800,-4.871473,-11.712215,0.007466
19.900,-4.836227,-11.711914,0.008904
20.000,-4.801372,-11.711587,0.009150
20.100,-4.766086,-11.711261,0.008640
20.200,-4.728599,-11.710916,0.009121
20.300,-4.693012,-11.710573,0.009549
20.400,-4.659312,-11.710242,0.009498
20.500,-4.624603,-11.709894,0.009884
20.600,-4.590753,-11.709540,0.010382
20.700,-4.557365,-11.709176,0.010721
20.800,-4.522382,-11.708804,0.009913
20.900,-4.487946,-11.708467,0.008984
21.000,-4.453568,-11.708141,0.009348
21.100,-4.420147,-11.707837,0.008459
21.200,-4.386186,-11.707534,0.008823
21.300,-4.350524,-11.707187,0.009946
21.400,-4.313997,-11.706806,0.010183
21.500,-4.278767,-11.706469,0.008178
21.600,-4.244052,-11.706165,0.008574
21.700,-4.210038,-11.705865,0.008243
21.800,-4.174972,-11.705542,0.009527
21.900,-4.139323,-11.705162,0.011150
22.000,-4.104602,-11.704790,0.009900
22.100,-4.071175,-11.704452,0.009961
22.200,-4.036905,-11.704094,0.010511
22.300,-4.000611,-11.703727,0.009362
22.400,-3.966530,-11.703412,0.008837
22.500,-3.929801,-11.703087,0.008550
22.600,-3.896465,-11.702804,0.007986
22.700,-3.860966,-11.702532,0.006677
22.800,-3.825974,-11.702298,0.006072
22.900,-3.791937,-11.702099,0.004897
23.000,-3.756575,-11.701901,0.005818
23.100,-3.722823,-11.701696,0.005686
23.200,-3.687029,-11.701489,0.005374
23.300,-3.651905,-11.701297,0.005000
23.400,-3.616337,-11.701101,0.005537
23.500,-3.582840,-11.700928,0.004305
23.600,-3.547199,-11.700781,0.003456
23.700,-3.513451,-11.700660,0.003341
23.800,-3.479636,-11.700521,0.004397
23.900,-3.445022,-11.700345,0.005347
24.000,-3.410020,-11.700166,0.004542
24.100,-3.374564,-11.700018,0.003503
24.200,-3.341066,-11.699914,0.002415
24.300,-3.306464,-11.699845,0.001103
24.400,-3.270549,-11.699810,0.000288
24.500,-3.235887,-11.699804,-0.000312
24.600,-3.201359,-11.699810,-0.000529
24.700,-3.166699,-11.699837,-0.001447
24.800,-3.132202,-11.699869,-0.000711
24.900,-3.097451,-11.699874,0.000303
25.000,-3.061642,-11.699870,-0.000232
25.100,-3.027592,-11.699871,0.000010
25.200,-2.992574,-11.699832,0.002277
25.300,-2.958489,-11.699777,0.001105
25.400,-2.924582,-11.699746,0.000819
25.500,-2.890565,-11.699710,0.001522
25.600,-2.856486,-11.699661,0.001485
25.700,-2.823133,-11.699631,0.000402
25.800,-2.788494,-11.699638,-0.000834
25.900,-2.753691,-11.699673,-0.001148
26.000,-2.719025,-11.699719,-0.001485
26.100,-2.684148,-11.699789,-0.002433
26.200,-2.648143,-11.699885,-0.002905
26.300,-2.613425,-11.700024,-0.005134
26.400,-2.579616,-11.700229,-0.007011
26.500,-2.546032,-11.700465,-0.007214
26.600,-2.510761,-11.700717,-0.007202
26.700,-2.476116,-11.700976,-0.007792
26.800,-2.441963,-11.701242,-0.007737
26.900,-2.407640,-11.701511,-0.007802
27.000,-2.372177,-11.701773,-0.006835
27.100,-2.338484,-11.702038,-0.008529
27.200,-2.302921,-11.702348,-0.008463
27.300,-2.269717,-11.702639,-0.008708
27.400,-2.234915,-11.702959,-0.009648
27.500,-2.199920,-11.703318,-0.010769
27.600,-2.165032,-11.703685,-0.010249
27.700,-2.131598,-11.704026,-0.010012
27.800,-2.096941,-11.704376,-0.010121
27.900,-2.062191,-11.704730,-0.010442
28.000,-2.027937,-11.705090,-0.010785
28.100,-1.992949,-11.705453,-0.010026
28.200,-1.958889,-11.705778,-0.009168
28.300,-1.924075,-11.706119,-0.010391
28.400,-1.890259,-11.706468,-0.010265
28.500,-1.854917,-11.706859,-0.011876
28.600,-1.820306,-11.707278,-0.012281
28.700,-1.786713,-11.707701,-0.012659
28.800,-1.751042,-11.708154,-0.012574
28.900,-1.717233,-11.708604,-0.014061
29.000,-1.684627,-11.709079,-0.015140
29.100,-1.648840,-11.709631,-0.015775
29.200,-1.614541,-11.710166,-0.015410
29.300,-1.579470,-11.710696,-0.014750
29.400,-1.544843,-11.711176,-0.012926
29.500,-1.510660,-11.711602,-0.012092
29.600,-1.476728,-11.712023,-0.012931
29.700,-1.441089,-11.712459,-0.011882
29.800,-1.407534,-11.712873,-0.013231
29.900,-1.372126,-11.713331,-0.013105
30.000,-1.338219,-11.713781,-0.013941
30.100,-1.303271,-11.714251,-0.013447
30.200,-1.268164,-11.714697,-0.012467
30.300,-1.234015,-11.715093,-0.011107
30.400,-1.199258,-11.715441,-0.009561
30.500,-1.163262,-11.715783,-0.009913
30.600,-1.129094,-11.716114,-0.009951
30.700,-1.095386,-11.716449,-0.010364
30.800,-1.060729,-11.716780,-0.009301
30.900,-1.025604,-11.717104,-0.009711
31.000,-0.992690,-11.717423,-0.010024
31.100,-0.957955,-11.717756,-0.009563
31.200,-0.922021,-11.718101,-0.010090
31.300,-0.887895,-11.718441,-0.010326
31.400,-0.854488,-11.718752,-0.008967
31.500,-0.819363,-11.719060,-0.009215
31.600,-0.785099,-11.719345,-0.008004
31.700,-0.751336,-11.719609,-0.007958
31.800,-0.715446,-11.719892,-0.008197
31.900,-0.680680,-11.720194,-0.009596
32.000,-0.645702,-11.720540,-0.010538
32.100,-0.612010,-11.720881,-0.009905
32.200,-0.578193,-11.721214,-0.009967
32.300,-0.544111,-11.721526,-0.008696
32.400,-0.510606,-11.721786,-0.007237
32.500,-0.475423,-11.722025,-0.006603
32.600,-0.441921,-11.722236,-0.006216
32.700,-0.404909,-11.722467,-0.006571
32.800,-0.371152,-11.722652,-0.004817
32.900,-0.337850,-11.722799,-0.004512
33.000,-0.301890,-11.722988,-0.006438
33.100,-0.266524,-11.723214,-0.006733
33.200,-0.233250,-11.723428,-0.006484
33.300,-0.199990,-11.723639,-0.006436
33.400,-0.165219,-11.723847,-0.005906
33.500,-0.130374,-11.724062,-0.006784
33.600,-0.096166,-11.724277,-0.006017
33.700,-0.060296,-11.724488,-0.006099
33.800,-0.026153,-11.724676,-0.005161
33.900,0.009827,-11.724851,-0.004867
34.000,0.044873,-11.725026,-0.005561
34.100,0.078068,-11.725201,-0.005516
34.200,0.113518,-11.725399,-0.006070
34.300,0.147861,-11.725615,-0.006940
34.400,0.181611,-11.725837,-0.006605
34.500,0.215426,-11.726064,-0.007268
34.600,0.249231,-11.726325,-0.008459
34.700,0.283952,-11.726640,-0.009985
34.800,0.319191,-11.726998,-0.010568
34.900,0.352400,-11.727361,-0.011453
35.000,0.387195,-11.727765,-0.011868
35.100,0.421216,-11.728184,-0.012945
35.200,0.455163,-11.728603,-0.011810
35.300,0.488817,-11.728982,-0.010747
35.400,0.525200,-11.729360,-0.010168
35.500,0.558361,-11.729694,-0.010092
35.600,0.594293,-11.730063,-0.010530
35.700,0.628107,-11.730441,-0.011950
35.800,0.662296,-11.730846,-0.011774
35.900,0.696730,-11.731266,-0.012583
36.000,0.731350,-11.731711,-0.013145
36.100,0.764811,-11.732156,-0.013603
36.200,0.798642,-11.732639,-0.015166
36.300,0.832985,-11.733175,-0.016130
36.400,0.867936,-11.733759,-0.017199
36.500,0.902941,-11.734361,-0.017161
36.600,0.936918,-11.734944,-0.016991
36.700,0.971058,-11.735526,-0.016989
36.800,1.006509,-11.736124,-0.016468
36.900,1.040542,-11.736677,-0.015959
37.000,1.075556,-11.737244,-0.016310
37.100,1.111172,-11.737808,-0.015223
37.200,1.144946,-11.738325,-0.015184
37.300,1.179566,-11.738866,-0.015893
37.400,1.214633,-11.739404,-0.014706
37.500,1.249451,-11.739928,-0.015407
37.600,1.283510,-11.740472,-0.016543
37.700,1.316948,-11.740999,-0.015068
37.800,1.352682,-11.741544,-0.015472
37.900,1.387387,-11.742087,-0.015877
38.000,1.422277,-11.742651,-0.016523
38.100,1.457894,-11.743241,-0.016481
38.200,1.491622,-11.743811,-0.017120
38.300,1.526321,-11.744419,-0.017909
38.400,1.560672,-11.745031,-0.017590
38.500,1.593420,-11.745603,-0.017281
38.600,1.628820,-11.746219,-0.017430
38.700,1.662646,-11.746832,-0.018766
38.800,1.697627,-11.747482,-0.018447
38.900,1.733023,-11.748123,-0.017857
39.000,1.767799,-11.748755,-0.018361
39.100,1.802543,-11.749376,-0.017301
39.200,1.838815,-11.749998,-0.016759
39.300,1.874401,-11.750610,-0.017432
39.400,1.908756,-11.751210,-0.017370
39.500,1.944525,-11.751849,-0.018339
39.600,1.978676,-11.752453,-0.017167
39.700,2.013145,-11.753023,-0.016166
39.800,2.048668,-11.753572,-0.015005
39.900,2.083893,-11.754090,-0.014736
40.000,2.118808,-11.754623,-0.016115
40.100,2.154628,-11.755208,-0.016880
40.200,2.186905,-11.755740,-0.016397
40.300,2.222455,-11.756293,-0.015016
40.400,2.256618,-11.756792,-0.014435
40.500,2.291923,-11.757319,-0.015631
40.600,2.325713,-11.757861,-0.016756
40.700,2.359445,-11.758430,-0.017158
40.800,2.391629,-11.758969,-0.016591
40.900,2.426411,-11.759544,-0.016835
41.000,2.461299,-11.760138,-0.017660
41.100,2.496910,-11.760761,-0.017717
41.200,2.531930,-11.761362,-0.017071
41.300,2.566263,-11.761931,-0.016505
41.400,2.600660,-11.762475,-0.015497
41.500,2.634575,-11.762987,-0.015038
41.600,2.670183,-11.763513,-0.014931
41.700,2.704813,-11.764041,-0.015726
41.800,2.738629,-11.764556,-0.014816
41.900,2.773993,-11.765065,-0.013959
42.000,2.808223,-11.765543,-0.014080
42.100,2.844185,-11.766058,-0.014672
42.200,2.879070,-11.766581,-0.015559
42.300,2.915136,-11.767151,-0.016401
42.400,2.949129,-11.767687,-0.015544
42.500,2.983417,-11.768213,-0.015681
42.600,3.017836,-11.768732,-0.014826
42.700,3.051136,-11.769205,-0.013982
42.800,3.085444,-11.769693,-0.014892
42.900,3.118831,-11.770185,-0.015063
43.000,3.153119,-11.770719,-0.016392
43.100,3.187234,-11.771304,-0.018267
43.200,3.221119,-11.771928,-0.018858
43.300,3.254943,-11.772545,-0.017883
43.400,3.288381,-11.773127,-0.017125
43.500,3.324174,-11.773729,-0.016640
43.600,3.358767,-11.774320,-0.017556
43.700,3.394248,-11.774950,-0.017930
43.800,3.428349,-11.775562,-0.017910
43.900,3.462935,-11.776180,-0.017925
44.000,3.497077,-11.776793,-0.018042
44.100,3.530845,-11.777395,-0.017675
44.200,3.564928,-11.778008,-0.018321
44.300,3.599694,-11.778637,-0.018011
44.400,3.634005,-11.779235,-0.016961
44.500,3.669541,-11.779839,-0.017215
44.600,3.704201,-11.780442,-0.017780
44.700,3.739010,-11.781080,-0.019073
44.800,3.771927,-11.781703,-0.018915
44.900,3.805483,-11.782341,-0.019354
45.000,3.841549,-11.783037,-0.019618
45.100,3.876431,-11.783690,-0.018213
45.200,3.911685,-11.784337,-0.018975
45.300,3.947073,-11.784979,-0.017962
45.400,3.981464,-11.785581,-0.017523
45.500,4.015372,-11.786181,-0.018414
45.600,4.050554,-11.786811,-0.017993
45.700,4.087009,-11.787442,-0.017183
45.800,4.123217,-11.788025,-0.015677
45.900,4.155994,-11.788537,-0.016276
46.000,4.190423,-11.789106,-0.017444
46.100,4.224498,-11.789681,-0.017088
46.200,4.260502,-11.790291,-0.017657
46.300,4.294398,-11.790857,-0.016663
46.400,4.329487,-11.791422,-0.016403
46.500,4.364543,-11.791969,-0.015821
46.600,4.399574,-11.792499,-0.015314
46.700,4.432747,-11.792984,-0.015061
46.800,4.467284,-11.793500,-0.015711
46.900,4.502432,-11.794051,-0.016443
47.000,4.537295,-11.794596,-0.015851
47.100,4.573006,-11.795133,-0.015214
47.200,4.606581,-11.795628,-0.015358
47.300,4.639236,-11.796109,-0.015355
47.400,4.674652,-11.796635,-0.015509
47.500,4.709820,-11.797160,-0.015635
47.600,4.745934,-11.797706,-0.015785
47.700,4.781483,-11.798241,-0.015437
47.800,4.814355,-11.798703,-0.013939
47.900,4.848868,-11.799152,-0.013436
48.000,4.883935,-11.799573,-0.011950
48.100,4.918518,-11.799955,-0.011537
48.200,4.953844,-11.800340,-0.011589
48.300,4.990193,-11.800721,-0.010823
48.400,5.026830,-11.801088,-0.010638
48.500,5.061869,-11.801449,-0.011290
48.600,5.095658,-11.801799,-0.010655
48.700,5.130394,-11.802145,-0.010625
48.800,5.164745,-11.802470,-0.009732
48.900,5.200078,-11.802767,-0.008407
49.000,5.235144,-11.803043,-0.008560
49.100,5.270989,-11.803334,-0.008883
49.200,5.306749,-11.803654,-0.010341
49.300,5.340511,-11.803953,-0.008691
49.400,5.375718,-11.804229,-0.008288
49.500,5.410895,-11.804493,-0.008133
49.600,5.446166,-11.804782,-0.009412
49.700,5.482890,-11.805137,-0.011134
49.800,5.517048,-11.805505,-0.011530
49.900,5.553586,-11.805892,-0.010623
50.000,5.588874,-11.806240,-0.010334
50.100,5.623634,-11.806597,-0.011599
50.200,5.659919,-11.806961,-0.009914
50.300,5.692887,-11.807278,-0.010714
50.400,5.727630,-11.807630,-0.011014
50.500,5.761178,-11.807984,-0.011479
50.600,5.795518,-11.808374,-0.012808
50.700,5.829095,-11.808787,-0.013379
50.800,5.862870,-11.809197,-0.012601
50.900,5.898296,-11.809627,-0.013246
51.000,5.932455,-11.810060,-0.013679
51.100,5.967174,-11.810510,-0.013737
51.200,6.002711,-11.810952,-0.012718
51.300,6.037770,-11.811361,-0.012321
51.400,6.071816,-11.811768,-0.013315
51.500,6.106332,-11.812203,-0.013549
51.600,6.140671,-11.812636,-0.013267
51.700,6.174324,-11.813055,-0.013297
51.800,6.208733,-11.813502,-0.014295
51.900,6.242814,-11.813954,-0.013849
